<Region name="jg-032316-sfx-footsteps-casual-shoes-on-rocks.2" muted="0" opaque="1" locked="0" video-locked="0" automatic="0" whole-file="0" import="0" external="1" sync-marked="0" left-of-split="0" right-of-split="0" hidden="0" position-locked="0" valid-transients="0" start="90112" length="48835" position="96044" beat="4.0018333333333329" sync-position="0" ancestral-start="0" ancestral-length="0" stretch="1" shift="1" positional-lock-style="AudioTime" layering-index="0" envelope-active="0" default-fade-in="0" default-fade-out="0" fade-in-active="1" fade-out-active="1" scale-amplitude="1" id="4279" type="audio" first-edit="nothing" source-0="4247" source-1="4249" master-source-0="4247" master-source-1="4249" channels="2">
  <Envelope default="yes"/>
  <FadeIn>
    <AutomationList automation-id="fadein" id="4280" interpolation-style="Curved" state="Off">
      <events>0 1.0000000116860974e-07
        1.9393939971923828 0.047581917240722742
        3.8787879943847656 0.095056046128510166
        5.8181819915771484 0.14231484248572931
        7.7575759887695312 0.18925124993221623
        9.6969699859619141 0.23575894240242462
        11.636363983154297 0.28173256500817656
        13.57575798034668 0.32706797270138427
        15.515151977539062 0.37166246619609461
        17.454545974731445 0.41541502461541735
        19.393939971923828 0.45822653433631649
        21.333333969116211 0.50000001351385825
        23.272727966308594 0.54064083177629574
        25.212121963500977 0.5800569245933096
        27.151515960693359 0.6181590018317934
        29.090909957885742 0.65486075002673527
        31.030303955078125 0.69007902790898956
        32.969696044921875 0.72373402244207363
        34.909091949462891 0.75574959107584527
        36.848487854003906 0.78605314034223239
        38.787879943847656 0.81457596850756187
        40.727272033691406 0.84125352362782713
        42.666667938232422 0.86602541938889765
        44.606063842773438 0.88883548505684096
        46.545455932617188 0.90963200949777623
        48.484848022460938 0.92836792879818764
        50.424243927001953 0.94500083077800312
        52.363639831542969 0.95949299759422635
        54.303031921386719 0.97181157768799009
        56.242424011230469 0.98192869618882905
        58.181819915771484 0.98982144793751214
        60.1212158203125 0.99547193120317901
        64 1
      </events>
    </AutomationList>
  </FadeIn>
  <InverseFadeIn>
    <AutomationList automation-id="fadein" id="4281" interpolation-style="Curved" state="Off">
      <events>0 1
        3.8787841796875 0.99547193120317901
        5.8181800842285156 0.98982144793751214
        7.7575759887695312 0.98192869618882905
        9.6969680786132812 0.97181157768799009
        11.636360168457031 0.95949299759422635
        13.575756072998047 0.94500083077800312
        15.515151977539062 0.92836792879818764
        17.454544067382812 0.90963200949777623
        19.393936157226562 0.88883548505684096
        21.333332061767578 0.86602541938889765
        23.272727966308594 0.84125352362782713
        25.212120056152344 0.81457596850756187
        27.151512145996094 0.78605314034223239
        29.090908050537109 0.75574959107584527
        31.030303955078125 0.72373402244207363
        32.969696044921875 0.69007902790898956
        34.909090042114258 0.65486075002673527
        36.848484039306641 0.6181590018317934
        38.787878036499023 0.5800569245933096
        40.727272033691406 0.54064083177629574
        42.666666030883789 0.50000001351385825
        44.606060028076172 0.45822653433631649
        46.545454025268555 0.41541502461541735
        48.484848022460938 0.37166246619609461
        50.42424201965332 0.32706797270138427
        52.363636016845703 0.28173256500817656
        54.303030014038086 0.23575894240242462
        56.242424011230469 0.18925124993221623
        58.181818008422852 0.14231484248572931
        60.121212005615234 0.095056046128510166
        62.060606002807617 0.047581917240722742
        64 1.0000000116860974e-07
      </events>
    </AutomationList>
  </InverseFadeIn>
  <FadeOut>
    <AutomationList automation-id="fadeout" id="4282" interpolation-style="Curved" state="Off">
      <events>0 1
        1.9393939971923828 0.99886733911550885
        3.8787879943847656 0.99547192230339399
        5.8181819915771484 0.98982144127527472
        7.7575759887695312 0.98192869618882905
        9.6969699859619141 0.97181156665131863
        11.636363983154297 0.9594929712165241
        13.57575798034668 0.94500081546684744
        15.515151977539062 0.92836792879818764
        17.454545974731445 0.90963199005079642
        19.393939971923828 0.88883544215458044
        21.333333969116211 0.86602539598220885
        23.272727966308594 0.84125352362782713
        25.212121963500977 0.81457594135313838
        27.151515960693359 0.78605308246601313
        29.090909957885742 0.75574956041960206
        31.030303955078125 0.72373402244207363
        32.969696044921875 0.69007902790898956
        34.909091949462891 0.65486071464754436
        36.848487854003906 0.61815892823618979
        38.787879943847656 0.5800568864602571
        40.727272033691406 0.54064083177629574
        42.666667938232422 0.49999997297228316
        44.606063842773438 0.45822645111753457
        46.545455932617188 0.41541498203247024
        48.484848022460938 0.37166246619609478
        50.424243927001953 0.32706792846270311
        52.363639831542969 0.28173247517396005
        54.303031921386719 0.2357588969086416
        56.242424011230469 0.18925124993221634
        58.181819915771484 0.1423147961488434
        60.1212158203125 0.095055952925701945
        64 1.0000000116860974e-07
      </events>
    </AutomationList>
  </FadeOut>
  <InverseFadeOut>
    <AutomationList automation-id="fadeout" id="4283" interpolation-style="Curved" state="Off">
      <events>0 1.0000000116860974e-07
        3.8787841796875 0.095055952925701945
        5.8181800842285156 0.1423147961488434
        7.7575759887695312 0.18925124993221634
        9.6969680786132812 0.2357588969086416
        11.636360168457031 0.28173247517396005
        13.575756072998047 0.32706792846270311
        15.515151977539062 0.37166246619609478
        17.454544067382812 0.41541498203247024
        19.393936157226562 0.45822645111753457
        21.333332061767578 0.49999997297228316
        23.272727966308594 0.54064083177629574
        25.212120056152344 0.5800568864602571
        27.151512145996094 0.61815892823618979
        29.090908050537109 0.65486071464754436
        31.030303955078125 0.69007902790898956
        32.969696044921875 0.72373402244207363
        34.909090042114258 0.75574956041960206
        36.848484039306641 0.78605308246601313
        38.787878036499023 0.81457594135313838
        40.727272033691406 0.84125352362782713
        42.666666030883789 0.86602539598220885
        44.606060028076172 0.88883544215458044
        46.545454025268555 0.90963199005079642
        48.484848022460938 0.92836792879818764
        50.42424201965332 0.94500081546684744
        52.363636016845703 0.9594929712165241
        54.303030014038086 0.97181156665131863
        56.242424011230469 0.98192869618882905
        58.181818008422852 0.98982144127527472
        60.121212005615234 0.99547192230339399
        62.060606002807617 0.99886733911550885
        64 1
      </events>
    </AutomationList>
  </InverseFadeOut>
</Region>
